"Linear Acceleration"
"Time (sec)","Linear Acceleration2 (meter/sec**2)"
0,-2.76830194655148
0.00416666666666667,-2.16625322514754
0.00833333333333333,-1.30156585361726
0.0125,-0.436475665220015
0.0166666666666667,1.15278019534736
0.0208333333333333,2.30950553301773
0.025,3.5942659394065
0.0291666666666667,4.38845264520168
0.0333333333333333,5.45592262586229
0.0375,6.73377218087722
0.0416666666666667,7.73543308995769
0.0458333333333333,8.85232888109534
0.05,9.94458004107136
0.0541666666666667,11.0279764493644
0.0583333333333333,12.0987739756809
0.0625,13.1531992157044
0.0666666666666667,14.1874713045618
0.0708333333333333,15.1978236631746
0.075,16.1805254820001
0.0791666666666667,17.1319027431678
0.0833333333333333,18.0483586739519
0.0875,18.9263934554538
0.0916666666666667,19.762623124957
0.0958333333333333,20.5537974987121
0.1,21.2968171587011
0.104166666666667,21.9887493052606
0.108333333333333,22.6268425585255
0.1125,23.208540595335
0.116666666666667,23.7314946464384
0.120833333333333,24.1935748361524
0.125,24.5928803613636
0.129166666666667,24.9277485254065
0.133333333333333,25.1967626264771
0.1375,25.3987587211297
0.141666666666667,25.5328312840507
0.145833333333333,25.5983377010973
0.15,25.5949017948831
0.154166666666667,25.522416062517
0.158333333333333,25.3810430066715
0.1625,25.1712152238195
0.166666666666667,24.8936344411877
0.170833333333333,24.5492693928104
0.175,24.1393525439451
0.179166666666667,23.6653756299496
0.183333333333333,23.1290839631931
0.1875,22.5324695148607
0.191666666666667,21.8777626954874
0.195833333333334,21.1674228422942
0.2,20.4041273275333
0.204166666666667,19.5907594488036
0.208333333333334,18.7303946672815
0.2125,17.8262859075306
0.216666666666667,16.8818470634019
0.220833333333334,15.9006355579514
0.225,14.8863334180885
0.229166666666667,13.8427272864819
0.233333333333334,12.7736873045911
0.2375,11.68314505295
0.241666666666667,10.5750706838088
0.245833333333334,9.45344941303195
0.25,8.32225758397755
0.254166666666667,7.18543850115032
0.258333333333334,6.04687831871206
0.2625,4.91038214812745
0.266666666666667,3.77965079658775
0.270833333333334,2.65825824177435
0.275,1.54963026498154
0.279166666666667,0.457024416761648
0.283333333333334,-0.616488377970847
0.2875,-1.66804036122506
0.291666666666667,-2.69498138845663
0.295833333333334,-3.69489112414031
0.3,-4.66558880454978
0.304166666666667,-5.60514047968073
0.308333333333333,-6.51186364969402
0.3125,-7.38432927486238
0.316666666666667,-8.22136117674235
0.320833333333333,-9.02203289669055
0.325,-9.7856621012411
0.329166666666667,-10.5118027044016
0.333333333333333,-11.2002348469899
0.3375,-11.8509529812083
0.341666666666667,-12.4641522459041
0.345833333333333,-13.0402134254118
0.35,-13.5796867069496
0.354166666666667,-14.0832745340943
0.358333333333333,-14.5518137965802
0.3625,-14.9862576175885
0.366666666666667,-15.3876569859721
0.370833333333333,-15.7571424502435
0.375,-16.0959060797623
0.379166666666667,-16.4051839145033
0.383333333333333,-16.6862389705733
0.3875,-16.9403450854291
0.391666666666666,-17.1687715458135
0.395833333333333,-17.3727687329504
0.4,-17.553554749063
0.404166666666666,-17.7123031252887
0.408333333333333,-17.8501316096923
0.4125,-17.9680920555421
0.416666666666666,-18.0671614030727
0.420833333333333,-18.1482337069565
0.425,-18.2121133376837
0.429166666666666,-18.2595089170312
0.433333333333333,-18.2910286887146
0.4375,-18.3071763292392
0.441666666666666,-18.308348128581
0.445833333333333,-18.2948307337206
0.45,-18.266799930818
0.454166666666666,-18.2243201884309
0.458333333333333,-18.1673450218026
0.4625,-18.0957181784953
0.466666666666666,-18.009175602613
0.470833333333333,-17.9073482029802
0.475,-17.7897654267484
0.479166666666666,-17.6558596326822
0.483333333333333,-17.504971294995
0.487499999999999,-17.3363550710827
0.491666666666666,-17.1491866247574
0.495833333333333,-16.9425705154596
0.499999999999999,-16.7155487098683
0.504166666666666,-16.4671102142591
0.508333333333333,-16.1962014343678
0.512499999999999,-15.901737484266
0.516666666666666,-15.5826143150055
0.520833333333333,-15.2377216664296
0.524999999999999,-14.8659567744174
0.529166666666666,-14.4662387718777
0.533333333333333,-14.0375236921105
0.537499999999999,-13.5788199760069
0.541666666666666,-13.0892043357181
0.545833333333333,-12.5678378875234
0.549999999999999,-12.0139822863628
0.554166666666666,-11.4270158407831
0.558333333333333,-10.8064492423329
0.562499999999999,-10.1519408602769
0.566666666666666,-9.46331129273998
0.570833333333333,-8.74055700929351
0.574999999999999,-7.98386286342195
0.579166666666666,-7.19361326393183
0.583333333333332,-6.37040182102012
0.587499999999999,-5.51503927669135
0.591666666666666,-4.62855957611207
0.595833333333332,-3.71222392008241
0.599999999999999,-2.76752272512809
0.604166666666666,-1.79617537845547
0.608333333333332,-0.800127777853312
0.612499999999999,0.218452382246125
0.616666666666666,1.25718252037264
0.620833333333332,2.31347425087533
0.624999999999999,3.38454450591866
0.629166666666666,4.46742860928417
0.633333333333332,5.55899512614578
0.637499999999999,6.655962327064
0.641666666666666,7.75491606777989
0.645833333333332,8.85232887693421
0.649999999999999,9.9445800437632
0.654166666666666,11.0279764485465
0.658333333333332,12.0987739752809
0.662499999999999,13.1531992166746
0.666666666666666,14.1874713036886
0.670833333333332,15.1978236635692
0.674999999999999,16.1805254819095
0.679166666666665,17.1319027434715
0.683333333333332,18.0483586734166
0.687499999999999,18.9263934557694
0.691666666666665,19.7626231249967
0.695833333333332,20.5537974983929
0.699999999999999,21.2968171593188
0.704166666666665,21.9887493044054
0.708333333333332,22.6268425593118
0.712499999999999,23.2085405950373
0.716666666666665,23.73149464607
0.720833333333332,24.1935748368933
0.724999999999999,24.5928803606699
0.729166666666665,24.9277485258898
0.733333333333332,25.1967626262217
0.737499999999999,25.3987587211414
0.741666666666665,25.5328312842172
0.745833333333332,25.5983377009088
0.749999999999999,25.5949017948746
0.754166666666665,25.5224160628363
0.758333333333332,25.3810430061533
0.762499999999999,25.171215224359
0.766666666666665,24.8936344406453
0.770833333333332,24.5492693933871
0.774999999999998,24.1393525434337
0.779166666666665,23.6653756302828
0.783333333333332,23.1290839631459
0.787499999999998,22.5324695145036
0.791666666666665,21.877762696131
0.795833333333332,21.1674228416912
0.799999999999998,20.4041273278848
0.804166666666665,19.5907594485849
0.808333333333332,18.7303946677212
0.812499999999998,17.8262859068325
0.816666666666665,16.8818470641256
0.820833333333332,15.9006355573715
0.824999999999998,14.8863334182187
0.829166666666665,13.8427272870651
0.833333333333332,12.7736873036782
0.837499999999998,11.6831450535143
0.841666666666665,10.5750706838555
0.845833333333332,9.45344941293653
0.849999999999998,8.32225758330307
0.854166666666665,7.1854385024191
0.858333333333332,6.04687831758182
0.862499999999998,4.910382148762
0.866666666666665,3.77965079672469
0.870833333333331,2.65825824079107
0.874999999999998,1.54963026612475
0.879166666666665,0.457024416140478
0.883333333333331,-0.616488377850452
0.887499999999998,-1.66804036081279
0.891666666666665,-2.69498138960349
0.895833333333331,-3.69489112263244
0.899999999999998,-4.66558880579377
0.904166666666665,-5.605140478916
0.908333333333331,-6.51186364980023
0.912499999999998,-7.38432927547659
0.916666666666665,-8.22136117599812
0.920833333333331,-9.02203289687803
0.924999999999998,-9.78566210171021
0.929166666666665,-10.5118027037902
0.933333333333331,-11.2002348471207
0.937499999999998,-11.8509529815032
0.941666666666665,-12.4641522456158
0.945833333333331,-13.0402134256167
0.949999999999998,-13.5796867069538
0.954166666666664,-14.0832745335759
0.958333333333331,-14.5518137973065
0.962499999999998,-14.9862576171506
0.966666666666664,-15.3876569860894
0.970833333333331,-15.7571424501439
0.974999999999998,-16.0959060801564
0.979166666666664,-16.4051839139248
0.983333333333331,-16.6862389710841
0.987499999999998,-16.9403450851183
0.991666666666664,-17.1687715458723
0.995833333333331,-17.3727687329966
0.999999999999998,-17.5535547489648
1.00416666666666,-17.7123031254508
1.00833333333333,-17.8501316095832
1.0125,-17.9680920554354
1.01666666666666,-18.0671614034015
1.02083333333333,-18.1482337065868
1.025,-18.2121133380175
1.02916666666666,-18.2595089167368
1.03333333333333,-18.2910286888917
1.0375,-18.3071763291721
1.04166666666666,-18.3083481286882
1.04583333333333,-18.2948307334933
1.05,-18.2667999310945
1.05416666666666,-18.2243201881803
1.05833333333333,-18.1673450219515
1.0625,-18.0957181785501
1.06666666666666,-18.0091756024085
1.07083333333333,-17.9073482031628
1.075,-17.7897654266332
1.07916666666666,-17.6558596327618
1.08333333333333,-17.5049712949428
1.0875,-17.3363550711363
1.09166666666666,-17.1491866246952
1.09583333333333,-16.9425705154642
1.1,-16.7155487098798
1.10416666666666,-16.4671102144228
1.10833333333333,-16.1962014340918
1.1125,-15.9017374844811
1.11666666666666,-15.5826143149842
1.12083333333333,-15.2377216661428
1.125,-14.8659567748992
1.12916666666666,-14.4662387713986
1.13333333333333,-14.037523692338
1.1375,-13.5788199761245
1.14166666666666,-13.0892043356933
1.14583333333333,-12.5678378869917
1.15,-12.0139822871526
1.15416666666666,-11.4270158403155
1.15833333333333,-10.8064492422675
1.1625,-10.1519408608683
1.16666666666666,-9.46331129188314
1.17083333333333,-8.74055700995522
1.175,-7.98386286313325
1.17916666666666,-7.19361326393024
1.18333333333333,-6.37040182135805
1.1875,-5.51503927622361
1.19166666666666,-4.62855957636407
1.19583333333333,-3.71222391998777
1.2,-2.76752272489524
1.20416666666666,-1.79617537942295
1.20833333333333,-0.800127776415932
1.2125,0.218452381113776
1.21666666666666,1.25718252060653
1.22083333333333,2.31347425158424
1.225,3.38454450487774
1.22916666666666,4.46742861000614
1.23333333333333,5.558995125852
1.2375,6.65596232683186
1.24166666666666,7.75491606831871
1.24583333333333,8.8523288765072
1.25,9.94458004404001
1.25416666666666,11.0279764485021
1.25833333333333,12.0987739749332
1.2625,13.1531992173156
1.26666666666666,14.1874713031522
1.27083333333333,15.1978236638799
1.275,16.1805254819341
1.27916666666666,17.1319027425435
1.28333333333333,18.0483586749857
1.2875,18.9263934544984
1.29166666666666,19.7626231256868
1.29583333333333,20.5537974981534
1.3,21.296817159129
1.30416666666666,21.9887493048753
1.30833333333333,22.6268425589149
1.3125,23.2085405951146
1.31666666666666,23.7314946463499
1.32083333333333,24.1935748363681
1.325,24.5928803612553
1.32916666666666,24.9277485254228
1.33333333333333,25.1967626263951
1.3375,25.3987587212725
1.34166666666666,25.5328312839272
1.34583333333333,25.5983377011
1.35,25.5949017949646
1.35416666666666,25.5224160625267
1.35833333333333,25.381043006537
1.3625,25.1712152239889
1.36666666666666,24.8936344409083
1.37083333333333,24.5492693933107
1.375,24.1393525433638
1.37916666666666,23.6653756304067
1.38333333333333,23.1290839629133
1.3875,22.5324695150668
1.39166666666666,21.8777626953477
1.39583333333333,21.167422842348
1.4,20.4041273275038
1.40416666666666,19.5907594486499
1.40833333333333,18.7303946679752
1.4125,17.8262859064003
1.41666666666666,16.8818470644781
1.42083333333333,15.9006355572528
1.425,14.8863334182018
1.42916666666666,13.8427272869792
1.43333333333333,12.7736873038225
1.4375,11.6831450536341
1.44166666666666,10.5750706834297
1.44583333333333,9.45344941286518
1.45,8.32225758479542
1.45416666666666,7.18543850011981
1.45833333333333,6.04687831936554
1.4625,4.91038214797906
1.46666666666666,3.77965079649711
1.47083333333333,2.65825824165677
1.475,1.54963026561502
1.47916666666666,0.45702441593094
1.48333333333333,-0.616488377368522
1.4875,-1.66804036147991
1.49166666666666,-2.69498138849797
1.49583333333333,-3.69489112380738
1.5,-4.66558880512254
1.50416666666666,-5.60514047919821
1.50833333333333,-6.51186364968229
1.5125,-7.38432927538811
1.51666666666666,-8.22136117619574
1.52083333333333,-9.02203289675468
1.525,-9.78566210166323
1.52916666666666,-10.5118027037831
1.53333333333333,-11.2002348477154
1.5375,-11.8509529802181
1.54166666666666,-12.4641522469761
1.54583333333333,-13.0402134246305
1.55,-13.5796867072648
1.55416666666666,-14.0832745342077
1.55833333333333,-14.5518137964445
1.5625,-14.9862576172852
1.56666666666666,-15.3876569865386
1.57083333333333,-15.7571424499049
1.575,-16.0959060798655
1.57916666666666,-16.4051839142679
1.58333333333333,-16.6862389711368
1.5875,-16.9403450847546
1.59166666666666,-17.1687715463177
1.59583333333333,-17.3727687326364
1.6,-17.5535547492154
1.60416666666666,-17.7123031252543
1.60833333333333,-17.8501316096983
1.6125,-17.9680920555172
1.61666666666666,-18.067161403075
1.62083333333333,-18.1482337070663
1.625,-18.2121133374154
1.62916666666666,-18.2595089173283
1.63333333333333,-18.29102868853
1.6375,-18.3071763294154
1.64166666666666,-18.3083481282925
1.64583333333333,-18.2948307340275
1.65,-18.2667999305886
1.65416666666666,-18.2243201885726
1.65833333333333,-18.1673450217253
1.6625,-18.0957181785239
1.66666666666666,-18.0091756026944
1.67083333333333,-17.9073482027426
1.675,-17.7897654271055
1.67916666666666,-17.6558596322551
1.68333333333333,-17.5049712953897
1.6875,-17.336355070846
1.69166666666666,-17.149186624848
1.69583333333333,-16.9425705153498
1.7,-16.7155487099886
1.70416666666666,-16.4671102143521
1.70833333333333,-16.1962014341787
1.7125,-15.9017374843669
1.71666666666666,-15.5826143149356
1.72083333333333,-15.237721666508
1.725,-14.8659567746084
1.72916666666666,-14.4662387711847
1.73333333333333,-14.0375236929029
1.7375,-13.5788199754918
1.74166666666666,-13.0892043360665
1.74583333333333,-12.5678378871191
1.75,-12.013982286632
1.75416666666666,-11.4270158411822
1.75833333333333,-10.8064492413882
1.7625,-10.1519408611531
1.76666666666666,-9.46331129227862
1.77083333333333,-8.74055700937266
1.775,-7.98386286318
1.77916666666666,-7.19361326489924
1.78333333333333,-6.3704018195959
1.78749999999999,-5.51503927796705
1.79166666666666,-4.62855957529483
1.79583333333333,-3.71222392040548
1.79999999999999,-2.76752272500925
1.80416666666666,-1.7961753786881
1.80833333333333,-0.800127777615192
1.81249999999999,0.218452382194042
1.81666666666666,1.25718252021849
1.82083333333333,2.31347425116799
1.82499999999999,3.38454450599948
1.82916666666666,4.46742860836294
1.83333333333333,5.55899512742574
1.83749999999999,6.65596232605293
1.84166666666666,7.75491606794845
1.84583333333333,8.85232887774916
1.84999999999999,9.94458004272089
1.85416666666666,11.0279764490071
1.85833333333333,12.0987739754902
1.86249999999999,13.1531992162933
1.86666666666666,14.1874713038933
1.87083333333333,15.1978236634762
1.87499999999999,16.1805254821545
1.87916666666666,17.1319027428399
1.88333333333333,18.0483586743094
1.88749999999999,18.9263934550752
1.89166666666666,19.7626231250851
1.89583333333333,20.5537974989333
1.89999999999999,21.2968171584398
1.90416666666666,21.9887493051679
1.90833333333333,22.6268425589384
1.91249999999999,23.2085405949736
1.91666666666666,23.7314946466286
1.92083333333333,24.1935748358544
1.92499999999999,24.5928803618198
1.92916666666666,24.927748525105
1.93333333333333,25.1967626265178
1.93749999999999,25.3987587211781
1.94166666666666,25.5328312840741
1.94583333333333,25.5983377009134
1.94999999999999,25.5949017950867
1.95416666666666,25.5224160624588
1.95833333333333,25.3810430065777
1.96249999999999,25.1712152240276
1.96666666666666,24.8936344409318
1.97083333333333,24.5492693930955
1.97499999999999,24.1393525436286
1.97916666666666,23.6653756303776
1.98333333333333,23.1290839626218
1.98749999999999,22.5324695152949
1.99166666666666,21.8777626955797
1.99583333333333,21.1674228415865
1.99999999999999,20.404127328558
2.00416666666666,19.5907594480411
2.00833333333333,18.7303946674917
2.01249999999999,17.826285907843
2.01666666666666,16.8818470628174
2.02083333333333,15.9006355585848
2.025,14.8863334175583
2.02916666666666,13.8427272867813
2.03333333333333,12.7736873045789
2.0375,11.6831450528191
2.04166666666666,10.5750706840179
2.04583333333333,9.45344941294384
2.05,8.32225758359145
2.05416666666666,7.1854385018625
2.05833333333333,6.04687831813091
2.0625,4.91038214815302
2.06666666666666,3.77965079746876
2.07083333333333,2.65825824047926
2.075,1.54963026587706
2.07916666666666,0.45702441674431
2.08333333333333,-0.616488378912331
2.0875,-1.66804035987367
2.09166666666667,-2.69498138952585
2.09583333333333,-3.69489112379399
2.1,-4.66558880399674
2.10416666666667,-5.60514048065118
2.10833333333333,-6.51186364904354
2.1125,-7.38432927460681
2.11666666666667,-8.2213611779639
2.12083333333333,-9.02203289525694
2.125,-9.78566210232399
2.12916666666667,-10.5118027039495
2.13333333333333,-11.2002348466019
2.1375,-11.850952981968
2.14166666666667,-12.464152245563
2.14583333333333,-13.0402134253125
2.15,-13.5796867072194
2.15416666666667,-14.0832745335055
2.15833333333334,-14.5518137975051
2.1625,-14.9862576167215
2.16666666666667,-15.3876569864663
2.17083333333334,-15.7571424503145
2.175,-16.0959060791906
2.17916666666667,-16.4051839151932
2.18333333333334,-16.6862389701105
2.1875,-16.9403450855922
2.19166666666667,-17.1687715459461
2.19583333333334,-17.3727687325833
2.2,-17.5535547494015
2.20416666666667,-17.7123031252325
2.20833333333334,-17.8501316095564
2.2125,-17.9680920556953
2.21666666666667,-18.067161402936
2.22083333333334,-18.1482337071587
2.22500000000001,-18.2121133374481
2.22916666666667,-18.2595089172606
2.23333333333334,-18.2910286884537
2.23750000000001,-18.307176329489
2.24166666666667,-18.3083481284799
2.24583333333334,-18.2948307336804
2.25000000000001,-18.2667999308931
2.25416666666667,-18.2243201884252
2.25833333333334,-18.1673450217841
2.26250000000001,-18.0957181784508
2.26666666666667,-18.0091756026476
2.27083333333334,-17.9073482030955
2.27500000000001,-17.7897654265766
2.27916666666667,-17.6558596328086
2.28333333333334,-17.5049712949834
2.28750000000001,-17.336355070967
2.29166666666668,-17.1491866249756
2.29583333333334,-16.9425705152047
2.30000000000001,-16.7155487098789
2.30416666666668,-16.4671102147674
2.30833333333334,-16.1962014337564
2.31250000000001,-15.9017374845576
2.31666666666668,-15.5826143150216
2.32083333333334,-15.2377216661385
2.32500000000001,-14.8659567749183
2.32916666666668,-14.4662387713488
2.33333333333334,-14.0375236922233
2.33750000000001,-13.578819976472
2.34166666666668,-13.0892043351711
2.34583333333334,-12.5678378876791
2.35000000000001,-12.0139822864582
2.35416666666668,-11.4270158408678
2.35833333333335,-10.8064492421855
2.36250000000001,-10.1519408600774
2.36666666666668,-9.46331129315624
2.37083333333335,-8.74055700896902
2.37500000000001,-7.98386286361986
2.37916666666668,-7.19361326389044
2.38333333333335,-6.37040182068012
2.38750000000001,-5.51503927748988
2.39166666666668,-4.62855957519583
2.39583333333335,-3.71222392076593
2.40000000000001,-2.76752272455248
2.40416666666668,-1.79617537902098
2.40833333333335,-0.800127777543624
2.41250000000001,0.21845238254291
2.41666666666668,1.25718251966646
2.42083333333335,2.31347425154161
2.42500000000002,3.38454450563868
2.42916666666668,4.46742860920919
2.43333333333335,5.55899512645673
2.43750000000002,6.65596232673139
2.44166666666668,7.75491606746635
2.44583333333335,8.85232887809823
2.45000000000002,9.94458004250949
2.45416666666668,11.0279764491932
2.45833333333335,12.0987739754003
2.46250000000002,13.1531992162263
2.46666666666668,14.1874713041
2.47083333333335,15.1978236634072
2.47500000000002,16.1805254820322
2.47916666666668,17.1319027431337
2.48333333333335,18.048358673754
2.48750000000002,18.9263934557955
2.49166666666669,19.7626231247181
2.49583333333335,20.5537974986971
2.50000000000002,21.2968171590709
2.50416666666669,21.9887493047487
2.50833333333335,22.6268425589343
2.51250000000002,23.2085405952588
2.51666666666669,23.7314946462588
2.52083333333335,24.1935748362265
2.52500000000002,24.5928803616133
2.52916666666669,24.9277485251472
2.53333333333335,25.1967626265447
