"Linear Velocity"
"Time (sec)","Linear Velocity1 (meter/sec)"
0,-2.09493113792464
0.00416666666666667,-2.10364300340112
0.00833333333333333,-2.10886344565497
0.0125,-2.11186765299542
0.0166666666666667,-2.10839472540618
0.0208333333333333,-2.10097277380571
0.025,-2.08863748895834
0.0291666666666667,-2.07216558770213
0.0333333333333333,-2.05152642363438
0.0375,-2.0260832735904
0.0416666666666667,-1.99606422364301
0.0458333333333333,-1.96146828986381
0.05,-1.92230938644687
0.0541666666666667,-1.87861667121102
0.0583333333333333,-1.8304348031011
0.0625,-1.77782410976562
0.0666666666666667,-1.72086066433447
0.0708333333333333,-1.65963627134116
0.075,-1.59425836251017
0.0791666666666667,-1.52484980392749
0.0833333333333333,-1.45154861672153
0.0875,-1.37450761402492
0.0916666666666667,-1.29389395742598
0.0958333333333333,-1.20988863667443
0.1,-1.12268587658074
0.104166666666667,-1.03249247550945
0.108333333333333,-0.939527079939012
0.1125,-0.844019399781389
0.116666666666667,-0.746209369224712
0.120833333333333,-0.646346257907866
0.125,-0.544687737258898
0.129166666666667,-0.441498906800329
0.133333333333333,-0.337051285202696
0.1375,-0.231621770812283
0.141666666666667,-0.125491576299657
0.145833333333333,-0.018945142178294
0.15,0.0877309664304666
0.154166666666667,0.194249174937878
0.158333333333333,0.300322021983436
0.1625,0.405663284974307
0.166666666666667,0.509989103872004
0.170833333333333,0.613019098519495
0.175,0.714477474731828
0.179166666666667,0.814094114271837
0.183333333333333,0.911605643675038
0.1875,1.00675647682176
0.191666666666667,1.09929982596792
0.195833333333334,1.18899867585766
0.2,1.27562671532349
0.204166666666667,1.35896922102362
0.208333333333334,1.43882388717374
0.2125,1.51500159620454
0.216666666666667,1.58732712415912
0.220833333333334,1.65563977566542
0.225,1.71979394294607
0.229166666666667,1.77965958386552
0.233333333333334,1.83512261427367
0.2375,1.88608521039566
0.241666666666667,1.93246601758956
0.245833333333334,1.97420026244766
0.25,2.01123976601296
0.254166666666667,2.0435528567193
0.258333333333334,2.07112418269944
0.2625,2.09395442398594
0.266666666666667,2.11205990643684
0.270833333333334,2.12547212013026
0.275,2.1342371462736
0.279166666666667,2.13841499773137
0.283333333333334,2.13807887941033
0.2875,2.13331437575637
0.291666666666667,2.12421857360665
0.295833333333334,2.11089912943904
0.3,2.09347329080381
0.304166666666667,2.07206688224895
0.308333333333333,2.04681326644387
0.3125,2.01785229140774
0.316666666666667,1.98532923476581
0.320833333333333,1.94939375578048
0.325,1.91019886558553
0.329166666666667,1.86789992549426
0.333333333333333,1.82265368263755
0.3375,1.7746173513335
0.341666666666667,1.7239477477369
0.345833333333333,1.67080048426387
0.35,1.61532922928279
0.354166666666667,1.55768503643972
0.358333333333333,1.49801574690755
0.3625,1.43646546677312
0.366666666666667,1.3731741207253
0.370833333333333,1.30827708224149
0.375,1.24190487957921
0.379166666666667,1.17418297598549
0.383333333333333,1.10523162197678
0.3875,1.03516577670321
0.391666666666666,0.964095095108397
0.395833333333333,0.892123977022917
0.4,0.819351674101524
0.404166666666666,0.745872450245978
0.408333333333333,0.671775791028856
0.4125,0.597146657556373
0.416666666666666,0.522065780197286
0.420833333333333,0.44660998772069
0.425,0.370852567169773
0.429166666666666,0.294863650639863
0.433333333333333,0.218710624110281
0.4375,0.142458554939533
0.441666666666666,0.0661706336349325
0.445833333333333,-0.010091373559042
0.45,-0.0862666650153211
0.454166666666666,-0.162294940516846
0.458333333333333,-0.238115937893499
0.4625,-0.313668972902218
0.466666666666666,-0.388892485663404
0.470833333333333,-0.463723596971164
0.475,-0.538097677816679
0.479166666666666,-0.611947935463964
0.483333333333333,-0.685205019483495
0.487499999999999,-0.75779665126706
0.491666666666666,-0.829647280363863
0.495833333333333,-0.900677771545406
0.499999999999999,-0.970805125893034
0.504166666666666,-1.03994223984092
0.508333333333333,-1.10799770573176
0.512499999999999,-1.17487565759055
0.516666666666666,-1.240475665691
0.520833333333333,-1.30469268338613
0.524999999999999,-1.36741704947934
0.529166666666666,-1.42853454916654
0.533333333333333,-1.48792653625079
0.537499999999999,-1.54547011894311
0.541666666666666,-1.60103841104045
0.545833333333333,-1.65450084981179
0.549999999999999,-1.70572358111759
0.554166666666666,-1.75456991181009
0.558333333333333,-1.8009008284732
0.562499999999999,-1.84457558090627
0.566666666666666,-1.88545232781751
0.570833333333333,-1.92338884133978
0.574999999999999,-1.95824326610514
0.579166666666666,-1.98987492773344
0.583333333333332,-2.01814518476915
0.587499999999999,-2.04291831730649
0.591666666666666,-2.06406244486037
0.595833333333332,-2.08145046538806
0.599999999999999,-2.09496100690754
0.604166666666666,-2.10447938272957
0.608333333333332,-2.1098985411079
0.612499999999999,-2.11111999996681
0.616666666666666,-2.10805475744376
0.620833333333332,-2.10062416911185
0.624999999999999,-2.08876078311864
0.629166666666666,-2.07240912488948
0.633333333333332,-2.05152642363754
0.637499999999999,-2.02608327359374
0.641666666666666,-1.99606422363944
0.645833333333332,-1.96146828986528
0.649999999999999,-1.92230938644667
0.654166666666666,-1.87861667121071
0.658333333333332,-1.83043480310194
0.662499999999999,-1.77782410976499
0.666666666666666,-1.7208606643347
0.670833333333332,-1.6596362713413
0.674999999999999,-1.5942583625103
0.679166666666665,-1.52484980392694
0.683333333333332,-1.45154861672176
0.687499999999999,-1.37450761402506
0.691666666666665,-1.29389395742583
0.695833333333332,-1.20988863667483
0.699999999999999,-1.12268587658015
0.704166666666665,-1.03249247551006
0.708333333333332,-0.939527079938791
0.712499999999999,-0.844019399781092
0.716666666666665,-0.746209369225357
0.720833333333332,-0.64634625790744
0.724999999999999,-0.544687737259195
0.729166666666665,-0.441498906800184
0.733333333333332,-0.337051285202717
0.737499999999999,-0.231621770812465
0.741666666666665,-0.125491576299532
0.745833333333332,-0.0189451421783729
0.749999999999999,0.0877309664301826
0.754166666666665,0.194249174938226
0.758333333333332,0.300322021983047
0.762499999999999,0.405663284974559
0.766666666666665,0.509989103871565
0.770833333333332,0.613019098519811
0.774999999999998,0.714477474731588
0.779166666666665,0.814094114271863
0.783333333333332,0.911605643675228
0.787499999999998,1.00675647682119
0.791666666666665,1.09929982596831
0.795833333333332,1.18899867585741
0.799999999999998,1.27562671532347
0.804166666666665,1.35896922102336
0.808333333333332,1.43882388717429
0.812499999999998,1.51500159620406
0.816666666666665,1.58732712415949
0.820833333333332,1.65563977566519
0.824999999999998,1.7197939429456
0.829166666666665,1.77965958386634
0.833333333333332,1.83512261427327
0.837499999999998,1.88608521039554
0.841666666666665,1.93246601758994
0.845833333333332,1.97420026244809
0.849999999999998,2.0112397660118
0.854166666666665,2.04355285672
0.858333333333332,2.07112418269904
0.862499999999998,2.09395442398595
0.866666666666665,2.11205990643762
0.870833333333331,2.12547212012923
0.874999999999998,2.13423714627386
0.879166666666665,2.13841499773139
0.883333333333331,2.13807887941022
0.887499999999998,2.13331437575717
0.891666666666665,2.12421857360543
0.895833333333331,2.11089912943981
0.899999999999998,2.09347329080338
0.904166666666665,2.07206688224913
0.908333333333331,2.04681326644442
0.912499999999998,2.01785229140702
0.916666666666665,1.9853292347659
0.920833333333331,1.9493937557809
0.924999999999998,1.91019886558494
0.929166666666665,1.86789992549436
0.933333333333331,1.82265368263797
0.937499999999998,1.77461735133333
0.941666666666665,1.72394774773695
0.945833333333331,1.6708004842637
0.949999999999998,1.61532922928244
0.954166666666664,1.55768503644047
0.958333333333331,1.49801574690738
0.962499999999998,1.43646546677316
0.966666666666664,1.37317412072538
0.970833333333331,1.30827708224177
0.974999999999998,1.24190487957872
0.979166666666664,1.17418297598579
0.983333333333331,1.10523162197656
0.987499999999998,1.03516577670322
0.991666666666664,0.964095095108522
0.995833333333331,0.892123977022963
0.999999999999998,0.819351674101724
1.00416666666666,0.745872450245922
1.00833333333333,0.671775791028856
1.0125,0.597146657556698
1.01666666666666,0.522065780197061
1.02083333333333,0.446609987720896
1.025,0.370852567169594
1.02916666666666,0.294863650640031
1.03333333333333,0.218710624110336
1.0375,0.142458554939606
1.04166666666666,0.0661706336347942
1.04583333333333,-0.0100913735588015
1.05,-0.0862666650154296
1.05416666666666,-0.162294940516676
1.05833333333333,-0.238115937893427
1.0625,-0.313668972902383
1.06666666666666,-0.388892485663237
1.07083333333333,-0.463723596971159
1.075,-0.538097677816575
1.07916666666666,-0.611947935463949
1.08333333333333,-0.685205019483436
1.0875,-0.757796651267078
1.09166666666666,-0.829647280363797
1.09583333333333,-0.900677771545284
1.1,-0.970805125892917
1.10416666666666,-1.03994223984119
1.10833333333333,-1.10799770573164
1.1125,-1.17487565759061
1.11666666666666,-1.2404756656912
1.12083333333333,-1.30469268338572
1.125,-1.36741704947963
1.12916666666666,-1.42853454916629
1.13333333333333,-1.48792653625058
1.1375,-1.5454701189433
1.14166666666666,-1.60103841104082
1.14583333333333,-1.654500849811
1.15,-1.70572358111783
1.15416666666666,-1.75456991181012
1.15833333333333,-1.80090082847277
1.1625,-1.84457558090692
1.16666666666666,-1.885452327817
1.17083333333333,-1.92338884133983
1.175,-1.9582432661051
1.17916666666666,-1.98987492773323
1.18333333333333,-2.01814518476963
1.1875,-2.04291831730636
1.19166666666666,-2.06406244486032
1.19583333333333,-2.08145046538794
1.2,-2.09496100690684
1.20416666666666,-2.10447938273071
1.20833333333333,-2.10989854110705
1.2125,-2.11111999996694
1.21666666666666,-2.10805475744433
1.22083333333333,-2.10062416911092
1.225,-2.08876078311904
1.22916666666666,-2.07240912488936
1.23333333333333,-2.05152642363751
1.2375,-2.02608327359439
1.24166666666666,-1.99606422363929
1.24583333333333,-1.96146828986545
1.25,-1.92230938644658
1.25416666666666,-1.87861667121049
1.25833333333333,-1.83043480310247
1.2625,-1.77782410976457
1.26666666666666,-1.72086066433475
1.27083333333333,-1.65963627134112
1.275,-1.59425836250983
1.27916666666666,-1.52484980392844
1.28333333333333,-1.451548616721
1.2875,-1.37450761402539
1.29166666666666,-1.2938939574257
1.29583333333333,-1.20988863667475
1.3,-1.12268587658062
1.30416666666666,-1.0324924755098
1.30833333333333,-0.939527079938869
1.3125,-0.844019399781343
1.31666666666666,-0.74620936922502
1.32083333333333,-0.646346257907891
1.325,-0.544687737258925
1.32916666666666,-0.441498906800372
1.33333333333333,-0.337051285202934
1.3375,-0.231621770812319
1.34166666666666,-0.125491576299809
1.34583333333333,-0.0189451421785502
1.35,0.0877309664303501
1.35416666666666,0.194249174937891
1.35833333333333,0.300322021983202
1.3625,0.405663284974275
1.36666666666666,0.509989103871512
1.37083333333333,0.61301909851981
1.375,0.714477474731419
1.37916666666666,0.814094114271859
1.38333333333333,0.911605643674831
1.3875,1.00675647682179
1.39166666666666,1.09929982596784
1.39583333333333,1.18899867585757
1.4,1.27562671532336
1.40416666666666,1.35896922102311
1.40833333333333,1.43882388717457
1.4125,1.51500159620373
1.41666666666666,1.58732712415947
1.42083333333333,1.65563977566521
1.425,1.71979394294556
1.42916666666666,1.77965958386605
1.43333333333333,1.83512261427317
1.4375,1.88608521039587
1.44166666666666,1.93246601758954
1.44583333333333,1.97420026244699
1.45,2.01123976601378
1.45416666666666,2.04355285671884
1.45833333333333,2.07112418269938
1.4625,2.09395442398603
1.46666666666666,2.11205990643675
1.47083333333333,2.12547212012976
1.475,2.13423714627431
1.47916666666666,2.13841499773104
1.48333333333333,2.13807887941048
1.4875,2.13331437575645
1.49166666666666,2.12421857360649
1.49583333333333,2.1108991294395
1.5,2.09347329080341
1.50416666666666,2.07206688224898
1.50833333333333,2.04681326644436
1.5125,2.01785229140725
1.51666666666666,1.98532923476585
1.52083333333333,1.9493937557809
1.525,1.91019886558513
1.52916666666666,1.86789992549468
1.53333333333333,1.82265368263699
1.5375,1.77461735133441
1.54166666666666,1.7239477477365
1.54583333333333,1.67080048426413
1.55,1.61532922928301
1.55416666666666,1.55768503643953
1.55833333333333,1.49801574690741
1.5625,1.43646546677378
1.56666666666666,1.37317412072517
1.57083333333333,1.30827708224148
1.575,1.24190487957919
1.57916666666666,1.17418297598597
1.58333333333333,1.1052316219763
1.5875,1.03516577670356
1.59166666666666,0.964095095108312
1.59583333333333,0.892123977023113
1.6,0.819351674101633
1.60416666666666,0.745872450246058
1.60833333333333,0.67177579102892
1.6125,0.597146657556489
1.61666666666666,0.522065780197433
1.62083333333333,0.446609987720597
1.625,0.370852567170132
1.62916666666666,0.294863650639878
1.63333333333333,0.218710624110414
1.6375,0.142458554939403
1.64166666666666,0.0661706336352706
1.64583333333333,-0.0100913735590563
1.65,-0.0862666650151232
1.65416666666666,-0.162294940516771
1.65833333333333,-0.238115937893366
1.6625,-0.31366897290209
1.66666666666666,-0.388892485663475
1.67083333333333,-0.463723596970821
1.675,-0.538097677816848
1.67916666666666,-0.611947935463564
1.68333333333333,-0.685205019483536
1.6875,-0.757796651266948
1.69166666666666,-0.829647280363778
1.69583333333333,-0.900677771545118
1.7,-0.970805125892884
1.70416666666666,-1.03994223984111
1.70833333333333,-1.1079977057317
1.7125,-1.17487565759051
1.71666666666666,-1.24047566569086
1.72083333333333,-1.30469268338609
1.725,-1.36741704947983
1.72916666666666,-1.42853454916577
1.73333333333333,-1.48792653625092
1.7375,-1.54547011894287
1.74166666666666,-1.6010384110406
1.74583333333333,-1.65450084981134
1.75,-1.7057235811173
1.75416666666666,-1.75456991181092
1.75833333333333,-1.80090082847256
1.7625,-1.84457558090648
1.76666666666666,-1.88545232781749
1.77083333333333,-1.92338884133963
1.775,-1.9582432661044
1.77916666666666,-1.98987492773455
1.78333333333333,-2.01814518476831
1.78749999999999,-2.04291831730697
1.79166666666666,-2.06406244486019
1.79583333333333,-2.08145046538795
1.79999999999999,-2.09496100690732
1.80416666666666,-2.1044793827298
1.80833333333333,-2.1098985411079
1.81249999999999,-2.1111199999667
1.81666666666666,-2.10805475744397
1.82083333333333,-2.10062416911161
1.82499999999999,-2.08876078311788
1.82916666666666,-2.07240912489057
1.83333333333333,-2.05152642363699
1.83749999999999,-2.0260832735941
1.84166666666666,-1.9960642236403
1.84583333333333,-1.96146828986444
1.84999999999999,-1.92230938644703
1.85416666666666,-1.87861667121109
1.85833333333333,-1.83043480310164
1.86249999999999,-1.77782410976513
1.86666666666666,-1.72086066433476
1.87083333333333,-1.65963627134145
1.87499999999999,-1.59425836250997
1.87916666666666,-1.52484980392772
1.88333333333333,-1.4515486167213
1.88749999999999,-1.37450761402519
1.89166666666666,-1.29389395742636
1.89583333333333,-1.20988863667428
1.89999999999999,-1.12268587658083
1.90416666666666,-1.03249247551
1.90833333333333,-0.939527079938874
1.91249999999999,-0.84401939978155
1.91666666666666,-0.746209369224757
1.92083333333333,-0.64634625790846
1.92499999999999,-0.544687737258825
1.92916666666666,-0.441498906800418
1.93333333333333,-0.337051285202915
1.93749999999999,-0.231621770812447
1.94166666666666,-0.125491576299708
1.94583333333333,-0.0189451421787013
1.94999999999999,0.0877309664302746
1.95416666666666,0.194249174937755
1.95833333333333,0.300322021983106
1.96249999999999,0.405663284974304
1.96666666666666,0.509989103871666
1.97083333333333,0.613019098519532
1.97499999999999,0.714477474731446
1.97916666666666,0.814094114272092
1.98333333333333,0.911605643674477
1.98749999999999,1.00675647682155
1.99166666666666,1.0992998259683
1.99583333333333,1.18899867585673
1.99999999999999,1.27562671532395
2.00416666666666,1.35896922102347
2.00833333333333,1.43882388717343
2.01249999999999,1.51500159620495
2.01666666666666,1.58732712415869
2.02083333333333,1.65563977566576
2.025,1.71979394294585
2.02916666666666,1.77965958386548
2.03333333333333,1.83512261427383
2.0375,1.88608521039561
2.04166666666666,1.93246601758981
2.04583333333333,1.97420026244794
2.05,2.01123976601233
2.05416666666666,2.0435528567197
2.05833333333333,2.07112418269934
2.0625,2.0939544239854
2.06666666666666,2.11205990643811
2.07083333333333,2.12547212012982
2.075,2.13423714627377
2.07916666666666,2.13841499773222
2.08333333333333,2.13807887940934
2.0875,2.13331437575717
2.09166666666667,2.12421857360648
2.09583333333333,2.11089912943873
2.1,2.09347329080483
2.10416666666667,2.07206688224865
2.10833333333333,2.04681326644396
2.1125,2.0178522914089
2.11666666666667,1.9853292347648
2.12083333333333,1.94939375578116
2.125,1.91019886558522
2.12916666666667,1.86789992549403
2.13333333333333,1.82265368263844
2.1375,1.77461735133336
2.14166666666667,1.72394774773668
2.14583333333333,1.670800484264
2.15,1.61532922928256
2.15416666666667,1.55768503644053
2.15833333333334,1.49801574690698
2.1625,1.43646546677346
2.16666666666667,1.37317412072535
2.17083333333334,1.30827708224102
2.175,1.24190487957976
2.17916666666667,1.17418297598522
2.18333333333334,1.10523162197685
2.1875,1.03516577670328
2.19166666666667,0.964095095108101
2.19583333333334,0.892123977023223
2.2,0.819351674101511
2.20416666666667,0.74587245024578
2.20833333333334,0.671775791028907
2.2125,0.597146657556268
2.21666666666667,0.522065780197347
2.22083333333334,0.446609987720426
2.22500000000001,0.370852567169807
2.22916666666667,0.294863650639624
2.23333333333334,0.218710624110408
2.23750000000001,0.142458554939374
2.24166666666667,0.0661706336347558
2.24583333333334,-0.0100913735590869
2.25000000000001,-0.0862666650154496
2.25416666666667,-0.162294940517039
2.25833333333334,-0.238115937893676
2.26250000000001,-0.313668972902271
2.26666666666667,-0.38889248566346
2.27083333333334,-0.463723596971508
2.27500000000001,-0.538097677816814
2.27916666666667,-0.611947935464202
2.28333333333334,-0.68520501948381
2.28750000000001,-0.757796651267142
2.29166666666668,-0.829647280364279
2.29583333333334,-0.900677771545497
2.30000000000001,-0.970805125892882
2.30416666666668,-1.03994223984183
2.30833333333334,-1.10799770573199
2.31250000000001,-1.17487565759083
2.31666666666668,-1.24047566569147
2.32083333333334,-1.30469268338604
2.32500000000001,-1.36741704948001
2.32916666666668,-1.42853454916659
2.33333333333334,-1.48792653625056
2.33750000000001,-1.54547011894388
2.34166666666668,-1.60103841104065
2.34583333333334,-1.65450084981181
2.35000000000001,-1.70572358111781
2.35416666666668,-1.75456991181067
2.35833333333335,-1.80090082847363
2.36250000000001,-1.84457558090609
2.36666666666668,-1.88545232781792
2.37083333333335,-1.92338884133993
2.37500000000001,-1.95824326610547
2.37916666666668,-1.98987492773383
2.38333333333335,-2.01814518476878
2.38750000000001,-2.04291831730744
2.39166666666668,-2.06406244486022
2.39583333333335,-2.08145046538851
2.40000000000001,-2.09496100690727
2.40416666666668,-2.10447938273002
2.40833333333335,-2.10989854110823
2.41250000000001,-2.11111999996627
2.41666666666668,-2.10805475744429
2.42083333333335,-2.1006241691117
2.42500000000002,-2.0887607831185
2.42916666666668,-2.07240912488965
2.43333333333335,-2.05152642363719
2.43750000000002,-2.02608327359376
2.44166666666668,-1.9960642236405
2.44583333333335,-1.96146828986429
2.45000000000002,-1.92230938644704
2.45416666666668,-1.87861667121085
2.45833333333335,-1.8304348031014
2.46250000000002,-1.7778241097651
2.46666666666668,-1.72086066433439
2.47083333333335,-1.65963627134098
2.47500000000002,-1.59425836250978
2.47916666666668,-1.52484980392705
2.48333333333335,-1.45154861672155
2.48750000000002,-1.37450761402447
2.49166666666669,-1.29389395742569
2.49583333333335,-1.20988863667435
2.50000000000002,-1.12268587657994
2.50416666666669,-1.03249247550931
2.50833333333335,-0.939527079938492
2.51250000000002,-0.844019399780683
