"Linear Displacement"
"Time (sec)","Linear Displacement1 (meter)"
0,-1.42065628921392
0.00416666666666667,-1.42940640772202
0.00833333333333333,-1.43818768958823
0.0125,-1.44698284741064
0.0166666666666667,-1.4557742028616
0.0208333333333333,-1.46454372801975
0.025,-1.47327309027276
0.0291666666666667,-1.48194370059795
0.0333333333333333,-1.49053676499442
0.0375,-1.49903333880939
0.0416666666666667,-1.50741438367329
0.0458333333333333,-1.51566082673366
0.05,-1.52375362185692
0.0541666666666667,-1.53167381244986
0.0583333333333333,-1.5394025955391
0.0625,-1.54692138673755
0.0666666666666667,-1.55421188572109
0.0708333333333333,-1.56125614183668
0.075,-1.56803661946439
0.0791666666666667,-1.57453626276084
0.0833333333333333,-1.58073855941882
0.0875,-1.58662760308824
0.0916666666666667,-1.59218815411602
0.0958333333333333,-1.59740569827716
0.1,-1.60226650318506
0.104166666666667,-1.60675767208694
0.108333333333333,-1.61086719476839
0.1125,-1.61458399531029
0.116666666666667,-1.61789797646129
0.120833333333333,-1.62080006040864
0.125,-1.62328222575055
0.129166666666667,-1.62533754049315
0.133333333333333,-1.62696019091538
0.1375,-1.62814550616453
0.141666666666667,-1.62888997846517
0.145833333333333,-1.6291912788434
0.15,-1.62904826828755
0.154166666666667,-1.62846100428564
0.158333333333333,-1.62743074269917
0.1625,-1.62595993495137
0.166666666666667,-1.62405222052787
0.170833333333333,-1.62171241480679
0.175,-1.61894649225508
0.179166666666667,-1.61576156504811
0.183333333333333,-1.61216585719019
0.1875,-1.60816867423454
0.191666666666667,-1.60378036872337
0.195833333333334,-1.59901230149034
0.2,-1.59387679899107
0.204166666666667,-1.58838710684976
0.208333333333334,-1.58255733983431
0.2125,-1.57640242849516
0.216666666666667,-1.56993806272723
0.220833333333334,-1.56318063253735
0.225,-1.55614716632216
0.229166666666667,-1.54885526698369
0.233333333333334,-1.54132304622953
0.2375,-1.53356905742389
0.241666666666667,-1.52561222737199
0.245833333333334,-1.51747178743442
0.25,-1.50916720437902
0.254166666666667,-1.50071811138532
0.258333333333334,-1.49214423962054
0.2625,-1.48346535080547
0.266666666666667,-1.47470117118394
0.270833333333334,-1.46587132729996
0.275,-1.45699528397254
0.279166666666667,-1.44809228483915
0.283333333333334,-1.43918129581513
0.2875,-1.4302809517883
0.291666666666667,-1.42140950683557
0.295833333333334,-1.41258478821271
0.3,-1.40382415432866
0.304166666666667,-1.39514445687421
0.308333333333333,-1.38656200723111
0.3125,-1.3780925472422
0.316666666666667,-1.36975122437808
0.320833333333333,-1.36155257129031
0.325,-1.35351048969705
0.329166666666667,-1.34563823850481
0.333333333333333,-1.3379484260298
0.3375,-1.33045300614581
0.341666666666667,-1.32316327815205
0.345833333333333,-1.31608989012524
0.35,-1.30924284549504
0.354166666666667,-1.30263151256151
0.358333333333333,-1.29626463665724
0.3625,-1.29015035464523
0.366666666666667,-1.28429621143671
0.370833333333333,-1.2787091782102
0.375,-1.27339567201401
0.379166666666667,-1.26836157643948
0.383333333333333,-1.26361226305958
0.3875,-1.25915261333888
0.391666666666666,-1.25498704073317
0.395833333333333,-1.25111951271279
0.4,-1.24755357245972
0.404166666666666,-1.24429236000637
0.408333333333333,-1.24133863260245
0.4125,-1.23869478411522
0.416666666666666,-1.23636286328724
0.420833333333333,-1.23434459069502
0.425,-1.23264137427059
0.429166666666666,-1.23125432326582
0.433333333333333,-1.23018426055789
0.4375,-1.22943173321068
0.441666666666666,-1.22899702122382
0.445833333333333,-1.22888014441703
0.45,-1.22908086741263
0.454166666666666,-1.22959870269406
0.458333333333333,-1.2304329117328
0.4625,-1.23158250419015
0.466666666666666,-1.23304623521429
0.470833333333333,-1.23482260086688
0.475,-1.23690983172735
0.479166666666666,-1.23930588473687
0.483333333333333,-1.24200843335802
0.487499999999999,-1.24501485614082
0.491666666666666,-1.24832222379958
0.495833333333333,-1.25192728492088
0.499999999999999,-1.25582645043715
0.504166666666666,-1.260015777016
0.508333333333333,-1.26449094953078
0.512499999999999,-1.26924726279311
0.516666666666666,-1.27427960274302
0.520833333333333,-1.27958242730751
0.524999999999999,-1.28514974715192
0.529166666666666,-1.29097510656202
0.533333333333333,-1.2970515647064
0.537499999999999,-1.30337167753949
0.541666666666666,-1.30992748061394
0.545833333333333,-1.31671047307759
0.549999999999999,-1.32371160313438
0.554166666666666,-1.33092125524942
0.558333333333333,-1.33832923937701
0.562499999999999,-1.34592478248481
0.566666666666666,-1.35369652263888
0.570833333333333,-1.36163250590219
0.574999999999999,-1.36972018628289
0.579166666666666,-1.3779464289494
0.583333333333332,-1.38629751690607
0.587499999999999,-1.39475916129665
0.591666666666666,-1.40331651547321
0.595833333333332,-1.41195419293589
0.599999999999999,-1.42065628921392
0.604166666666666,-1.42940640772202
0.608333333333332,-1.43818768958823
0.612499999999999,-1.44698284741064
0.616666666666666,-1.45577420286159
0.620833333333332,-1.46454372801975
0.624999999999999,-1.47327309027276
0.629166666666666,-1.48194370059794
0.633333333333332,-1.49053676499441
0.637499999999999,-1.49903333880939
0.641666666666666,-1.50741438367329
0.645833333333332,-1.51566082673365
0.649999999999999,-1.52375362185692
0.654166666666666,-1.53167381244986
0.658333333333332,-1.5394025955391
0.662499999999999,-1.54692138673755
0.666666666666666,-1.55421188572109
0.670833333333332,-1.56125614183668
0.674999999999999,-1.56803661946439
0.679166666666665,-1.57453626276084
0.683333333333332,-1.58073855941882
0.687499999999999,-1.58662760308823
0.691666666666665,-1.59218815411602
0.695833333333332,-1.59740569827715
0.699999999999999,-1.60226650318505
0.704166666666665,-1.60675767208694
0.708333333333332,-1.61086719476839
0.712499999999999,-1.61458399531028
0.716666666666665,-1.61789797646129
0.720833333333332,-1.62080006040864
0.724999999999999,-1.62328222575055
0.729166666666665,-1.62533754049315
0.733333333333332,-1.62696019091538
0.737499999999999,-1.62814550616453
0.741666666666665,-1.62888997846517
0.745833333333332,-1.6291912788434
0.749999999999999,-1.62904826828755
0.754166666666665,-1.62846100428564
0.758333333333332,-1.62743074269917
0.762499999999999,-1.62595993495137
0.766666666666665,-1.62405222052787
0.770833333333332,-1.62171241480679
0.774999999999998,-1.61894649225508
0.779166666666665,-1.61576156504812
0.783333333333332,-1.61216585719019
0.787499999999998,-1.60816867423454
0.791666666666665,-1.60378036872337
0.795833333333332,-1.59901230149034
0.799999999999998,-1.59387679899107
0.804166666666665,-1.58838710684976
0.808333333333332,-1.58255733983431
0.812499999999998,-1.57640242849516
0.816666666666665,-1.56993806272724
0.820833333333332,-1.56318063253735
0.824999999999998,-1.55614716632216
0.829166666666665,-1.54885526698369
0.833333333333332,-1.54132304622954
0.837499999999998,-1.53356905742389
0.841666666666665,-1.52561222737199
0.845833333333332,-1.51747178743442
0.849999999999998,-1.50916720437902
0.854166666666665,-1.50071811138532
0.858333333333332,-1.49214423962054
0.862499999999998,-1.48346535080548
0.866666666666665,-1.47470117118395
0.870833333333331,-1.46587132729996
0.874999999999998,-1.45699528397254
0.879166666666665,-1.44809228483915
0.883333333333331,-1.43918129581514
0.887499999999998,-1.4302809517883
0.891666666666665,-1.42140950683557
0.895833333333331,-1.41258478821272
0.899999999999998,-1.40382415432866
0.904166666666665,-1.39514445687421
0.908333333333331,-1.38656200723111
0.912499999999998,-1.3780925472422
0.916666666666665,-1.36975122437808
0.920833333333331,-1.36155257129031
0.924999999999998,-1.35351048969705
0.929166666666665,-1.34563823850482
0.933333333333331,-1.33794842602981
0.937499999999998,-1.33045300614582
0.941666666666665,-1.32316327815206
0.945833333333331,-1.31608989012524
0.949999999999998,-1.30924284549504
0.954166666666664,-1.30263151256152
0.958333333333331,-1.29626463665725
0.962499999999998,-1.29015035464523
0.966666666666664,-1.28429621143671
0.970833333333331,-1.2787091782102
0.974999999999998,-1.27339567201402
0.979166666666664,-1.26836157643948
0.983333333333331,-1.26361226305959
0.987499999999998,-1.25915261333888
0.991666666666664,-1.25498704073317
0.995833333333331,-1.25111951271279
0.999999999999998,-1.24755357245972
1.00416666666666,-1.24429236000637
1.00833333333333,-1.24133863260245
1.0125,-1.23869478411522
1.01666666666666,-1.23636286328724
1.02083333333333,-1.23434459069502
1.025,-1.23264137427059
1.02916666666666,-1.23125432326582
1.03333333333333,-1.23018426055789
1.0375,-1.22943173321068
1.04166666666666,-1.22899702122382
1.04583333333333,-1.22888014441703
1.05,-1.22908086741263
1.05416666666666,-1.22959870269406
1.05833333333333,-1.2304329117328
1.0625,-1.23158250419015
1.06666666666666,-1.23304623521429
1.07083333333333,-1.23482260086688
1.075,-1.23690983172735
1.07916666666666,-1.23930588473686
1.08333333333333,-1.24200843335802
1.0875,-1.24501485614082
1.09166666666666,-1.24832222379958
1.09583333333333,-1.25192728492088
1.1,-1.25582645043715
1.10416666666666,-1.26001577701599
1.10833333333333,-1.26449094953078
1.1125,-1.26924726279311
1.11666666666666,-1.27427960274302
1.12083333333333,-1.2795824273075
1.125,-1.28514974715192
1.12916666666666,-1.29097510656202
1.13333333333333,-1.29705156470639
1.1375,-1.30337167753949
1.14166666666666,-1.30992748061393
1.14583333333333,-1.31671047307759
1.15,-1.32371160313437
1.15416666666666,-1.33092125524941
1.15833333333333,-1.33832923937701
1.1625,-1.3459247824848
1.16666666666666,-1.35369652263888
1.17083333333333,-1.36163250590219
1.175,-1.36972018628288
1.17916666666666,-1.37794642894939
1.18333333333333,-1.38629751690606
1.1875,-1.39475916129664
1.19166666666666,-1.40331651547321
1.19583333333333,-1.41195419293589
1.2,-1.42065628921391
1.20416666666666,-1.42940640772201
1.20833333333333,-1.43818768958823
1.2125,-1.44698284741063
1.21666666666666,-1.45577420286159
1.22083333333333,-1.46454372801974
1.225,-1.47327309027275
1.22916666666666,-1.48194370059793
1.23333333333333,-1.4905367649944
1.2375,-1.49903333880938
1.24166666666666,-1.50741438367329
1.24583333333333,-1.51566082673365
1.25,-1.52375362185691
1.25416666666666,-1.53167381244985
1.25833333333333,-1.53940259553909
1.2625,-1.54692138673754
1.26666666666666,-1.55421188572109
1.27083333333333,-1.56125614183667
1.275,-1.56803661946438
1.27916666666666,-1.57453626276083
1.28333333333333,-1.58073855941881
1.2875,-1.58662760308823
1.29166666666666,-1.59218815411601
1.29583333333333,-1.59740569827715
1.3,-1.60226650318505
1.30416666666666,-1.60675767208694
1.30833333333333,-1.61086719476838
1.3125,-1.61458399531028
1.31666666666666,-1.61789797646128
1.32083333333333,-1.62080006040864
1.325,-1.62328222575055
1.32916666666666,-1.62533754049315
1.33333333333333,-1.62696019091537
1.3375,-1.62814550616453
1.34166666666666,-1.62888997846517
1.34583333333333,-1.6291912788434
1.35,-1.62904826828755
1.35416666666666,-1.62846100428564
1.35833333333333,-1.62743074269917
1.3625,-1.62595993495137
1.36666666666666,-1.62405222052787
1.37083333333333,-1.62171241480679
1.375,-1.61894649225508
1.37916666666666,-1.61576156504812
1.38333333333333,-1.61216585719019
1.3875,-1.60816867423454
1.39166666666666,-1.60378036872337
1.39583333333333,-1.59901230149034
1.4,-1.59387679899108
1.40416666666666,-1.58838710684977
1.40833333333333,-1.58255733983431
1.4125,-1.57640242849516
1.41666666666666,-1.56993806272724
1.42083333333333,-1.56318063253735
1.425,-1.55614716632217
1.42916666666666,-1.5488552669837
1.43333333333333,-1.54132304622954
1.4375,-1.5335690574239
1.44166666666666,-1.525612227372
1.44583333333333,-1.51747178743443
1.45,-1.50916720437903
1.45416666666666,-1.50071811138533
1.45833333333333,-1.49214423962055
1.4625,-1.48346535080548
1.46666666666666,-1.47470117118395
1.47083333333333,-1.46587132729997
1.475,-1.45699528397255
1.47916666666666,-1.44809228483916
1.48333333333333,-1.43918129581514
1.4875,-1.43028095178831
1.49166666666666,-1.42140950683558
1.49583333333333,-1.41258478821272
1.5,-1.40382415432867
1.50416666666666,-1.39514445687422
1.50833333333333,-1.38656200723112
1.5125,-1.37809254724221
1.51666666666666,-1.36975122437809
1.52083333333333,-1.36155257129032
1.525,-1.35351048969706
1.52916666666666,-1.34563823850482
1.53333333333333,-1.33794842602982
1.5375,-1.33045300614582
1.54166666666666,-1.32316327815206
1.54583333333333,-1.31608989012525
1.55,-1.30924284549505
1.55416666666666,-1.30263151256152
1.55833333333333,-1.29626463665725
1.5625,-1.29015035464523
1.56666666666666,-1.28429621143672
1.57083333333333,-1.2787091782102
1.575,-1.27339567201402
1.57916666666666,-1.26836157643948
1.58333333333333,-1.26361226305959
1.5875,-1.25915261333889
1.59166666666666,-1.25498704073317
1.59583333333333,-1.25111951271279
1.6,-1.24755357245972
1.60416666666666,-1.24429236000637
1.60833333333333,-1.24133863260246
1.6125,-1.23869478411522
1.61666666666666,-1.23636286328724
1.62083333333333,-1.23434459069502
1.625,-1.23264137427059
1.62916666666666,-1.23125432326582
1.63333333333333,-1.23018426055789
1.6375,-1.22943173321068
1.64166666666666,-1.22899702122382
1.64583333333333,-1.22888014441703
1.65,-1.22908086741263
1.65416666666666,-1.22959870269406
1.65833333333333,-1.2304329117328
1.6625,-1.23158250419015
1.66666666666666,-1.23304623521429
1.67083333333333,-1.23482260086688
1.675,-1.23690983172735
1.67916666666666,-1.23930588473686
1.68333333333333,-1.24200843335802
1.6875,-1.24501485614081
1.69166666666666,-1.24832222379957
1.69583333333333,-1.25192728492088
1.7,-1.25582645043715
1.70416666666666,-1.26001577701599
1.70833333333333,-1.26449094953078
1.7125,-1.2692472627931
1.71666666666666,-1.27427960274301
1.72083333333333,-1.2795824273075
1.725,-1.28514974715191
1.72916666666666,-1.29097510656201
1.73333333333333,-1.29705156470639
1.7375,-1.30337167753948
1.74166666666666,-1.30992748061393
1.74583333333333,-1.31671047307758
1.75,-1.32371160313437
1.75416666666666,-1.33092125524941
1.75833333333333,-1.338329239377
1.7625,-1.3459247824848
1.76666666666666,-1.35369652263887
1.77083333333333,-1.36163250590218
1.775,-1.36972018628288
1.77916666666666,-1.37794642894939
1.78333333333333,-1.38629751690606
1.78749999999999,-1.39475916129663
1.79166666666666,-1.4033165154732
1.79583333333333,-1.41195419293588
1.79999999999999,-1.42065628921391
1.80416666666666,-1.42940640772201
1.80833333333333,-1.43818768958822
1.81249999999999,-1.44698284741062
1.81666666666666,-1.45577420286158
1.82083333333333,-1.46454372801973
1.82499999999999,-1.47327309027274
1.82916666666666,-1.48194370059792
1.83333333333333,-1.4905367649944
1.83749999999999,-1.49903333880938
1.84166666666666,-1.50741438367328
1.84583333333333,-1.51566082673364
1.84999999999999,-1.5237536218569
1.85416666666666,-1.53167381244985
1.85833333333333,-1.53940259553909
1.86249999999999,-1.54692138673754
1.86666666666666,-1.55421188572108
1.87083333333333,-1.56125614183667
1.87499999999999,-1.56803661946438
1.87916666666666,-1.57453626276083
1.88333333333333,-1.58073855941881
1.88749999999999,-1.58662760308823
1.89166666666666,-1.59218815411601
1.89583333333333,-1.59740569827715
1.89999999999999,-1.60226650318505
1.90416666666666,-1.60675767208694
1.90833333333333,-1.61086719476838
1.91249999999999,-1.61458399531028
1.91666666666666,-1.61789797646128
1.92083333333333,-1.62080006040864
1.92499999999999,-1.62328222575054
1.92916666666666,-1.62533754049315
1.93333333333333,-1.62696019091537
1.93749999999999,-1.62814550616453
1.94166666666666,-1.62888997846517
1.94583333333333,-1.6291912788434
1.94999999999999,-1.62904826828755
1.95416666666666,-1.62846100428564
1.95833333333333,-1.62743074269917
1.96249999999999,-1.62595993495137
1.96666666666666,-1.62405222052787
1.97083333333333,-1.6217124148068
1.97499999999999,-1.61894649225508
1.97916666666666,-1.61576156504812
1.98333333333333,-1.61216585719019
1.98749999999999,-1.60816867423455
1.99166666666666,-1.60378036872338
1.99583333333333,-1.59901230149035
1.99999999999999,-1.59387679899108
2.00416666666666,-1.58838710684977
2.00833333333333,-1.58255733983432
2.01249999999999,-1.57640242849516
2.01666666666666,-1.56993806272724
2.02083333333333,-1.56318063253735
2.025,-1.55614716632217
2.02916666666666,-1.5488552669837
2.03333333333333,-1.54132304622954
2.0375,-1.5335690574239
2.04166666666666,-1.525612227372
2.04583333333333,-1.51747178743443
2.05,-1.50916720437902
2.05416666666666,-1.50071811138532
2.05833333333333,-1.49214423962054
2.0625,-1.48346535080548
2.06666666666666,-1.47470117118395
2.07083333333333,-1.46587132729997
2.075,-1.45699528397254
2.07916666666666,-1.44809228483915
2.08333333333333,-1.43918129581514
2.0875,-1.4302809517883
2.09166666666667,-1.42140950683557
2.09583333333333,-1.41258478821272
2.1,-1.40382415432866
2.10416666666667,-1.39514445687421
2.10833333333333,-1.38656200723111
2.1125,-1.3780925472422
2.11666666666667,-1.36975122437808
2.12083333333333,-1.3615525712903
2.125,-1.35351048969705
2.12916666666667,-1.34563823850481
2.13333333333333,-1.3379484260298
2.1375,-1.33045300614581
2.14166666666667,-1.32316327815205
2.14583333333333,-1.31608989012524
2.15,-1.30924284549504
2.15416666666667,-1.30263151256151
2.15833333333334,-1.29626463665724
2.1625,-1.29015035464522
2.16666666666667,-1.2842962114367
2.17083333333334,-1.27870917821019
2.175,-1.27339567201401
2.17916666666667,-1.26836157643947
2.18333333333334,-1.26361226305958
2.1875,-1.25915261333888
2.19166666666667,-1.25498704073316
2.19583333333334,-1.25111951271278
2.2,-1.24755357245971
2.20416666666667,-1.24429236000636
2.20833333333334,-1.24133863260245
2.2125,-1.23869478411521
2.21666666666667,-1.23636286328723
2.22083333333334,-1.23434459069502
2.22500000000001,-1.23264137427059
2.22916666666667,-1.23125432326582
2.23333333333334,-1.23018426055789
2.23750000000001,-1.22943173321068
2.24166666666667,-1.22899702122381
2.24583333333334,-1.22888014441703
2.25000000000001,-1.22908086741263
2.25416666666667,-1.22959870269406
2.25833333333334,-1.2304329117328
2.26250000000001,-1.23158250419015
2.26666666666667,-1.23304623521429
2.27083333333334,-1.23482260086688
2.27500000000001,-1.23690983172736
2.27916666666667,-1.23930588473687
2.28333333333334,-1.24200843335803
2.28750000000001,-1.24501485614083
2.29166666666668,-1.24832222379959
2.29583333333334,-1.25192728492089
2.30000000000001,-1.25582645043716
2.30416666666668,-1.26001577701601
2.30833333333334,-1.2644909495308
2.31250000000001,-1.26924726279312
2.31666666666668,-1.27427960274303
2.32083333333334,-1.27958242730752
2.32500000000001,-1.28514974715194
2.32916666666668,-1.29097510656204
2.33333333333334,-1.29705156470642
2.33750000000001,-1.30337167753951
2.34166666666668,-1.30992748061396
2.34583333333334,-1.31671047307761
2.35000000000001,-1.3237116031344
2.35416666666668,-1.33092125524944
2.35833333333335,-1.33832923937704
2.36250000000001,-1.34592478248483
2.36666666666668,-1.35369652263891
2.37083333333335,-1.36163250590222
2.37500000000001,-1.36972018628292
2.37916666666668,-1.37794642894943
2.38333333333335,-1.3862975169061
2.38750000000001,-1.39475916129668
2.39166666666668,-1.40331651547324
2.39583333333335,-1.41195419293593
2.40000000000001,-1.42065628921396
2.40416666666668,-1.42940640772205
2.40833333333335,-1.43818768958827
2.41250000000001,-1.44698284741067
2.41666666666668,-1.45577420286163
2.42083333333335,-1.46454372801978
2.42500000000002,-1.47327309027279
2.42916666666668,-1.48194370059797
2.43333333333335,-1.49053676499445
2.43750000000002,-1.49903333880943
2.44166666666668,-1.50741438367333
2.44583333333335,-1.51566082673369
2.45000000000002,-1.52375362185695
2.45416666666668,-1.5316738124499
2.45833333333335,-1.53940259553913
2.46250000000002,-1.54692138673758
2.46666666666668,-1.55421188572113
2.47083333333335,-1.56125614183671
2.47500000000002,-1.56803661946442
2.47916666666668,-1.57453626276087
2.48333333333335,-1.58073855941885
2.48750000000002,-1.58662760308826
2.49166666666669,-1.59218815411604
2.49583333333335,-1.59740569827718
2.50000000000002,-1.60226650318508
